PE UV                   SPECTRUM    ASCII       PEDS        1.60        
  -1
SCAN1BAS.B1
15/02/23
20:03:37.00
15/02/23
20:06:01.00
Rambo

320.000000
1









4444

SCAN
1
1


0.0

2.00
MANUAL



VIS




































#HDR
-1
-1
#GR
NM
%T
0.00002384185791015625
0.0
800.000000
5.000000
97
8
0.585800
0.450700
#DATA
800.000000	0.458900 
795.000000	0.464300 
790.000000	0.471400 
785.000000	0.463400 
780.000000	0.474100 
775.000000	0.470400 
770.000000	0.461200 
765.000000	0.464700 
760.000000	0.468800 
755.000000	0.472700 
750.000000	0.472500 
745.000000	0.466800 
740.000000	0.467000 
735.000000	0.464500 
730.000000	0.462200 
725.000000	0.468900 
720.000000	0.468600 
715.000000	0.470900 
710.000000	0.464400 
705.000000	0.464400 
700.000000	0.467500 
695.000000	0.467500 
690.000000	0.467800 
685.000000	0.463500 
680.000000	0.467699 
675.000000	0.473200 
670.000000	0.473500 
665.000000	0.474500 
660.000000	0.476200 
655.000000	0.472500 
650.000000	0.471300 
645.000000	0.473500 
640.000000	0.472200 
635.000000	0.470500 
630.000000	0.471700 
625.000000	0.476000 
620.000000	0.474400 
615.000000	0.474200 
610.000000	0.475200 
605.000000	0.476000 
600.000000	0.473700 
595.000000	0.474300 
590.000000	0.472000 
585.000000	0.469900 
580.000000	0.472200 
575.000000	0.468299 
570.000000	0.461300 
565.000000	0.461300 
560.000000	0.454400 
555.000000	0.464800 
550.000000	0.466000 
545.000000	0.459600 
540.000000	0.457300 
535.000000	0.455199 
530.000000	0.453300 
525.000000	0.450700 
520.000000	0.452300 
515.000000	0.455700 
510.000000	0.462600 
505.000000	0.466100 
500.000000	0.478799 
495.000000	0.489400 
490.000000	0.485700 
485.000000	0.479900 
480.000000	0.454599 
475.000000	0.451500 
470.000000	0.453600 
465.000000	0.460400 
460.000000	0.467200 
455.000000	0.469800 
450.000000	0.474400 
445.000000	0.482600 
440.000000	0.477200 
435.000000	0.479100 
430.000000	0.479100 
425.000000	0.474400 
420.000000	0.475600 
415.000000	0.475900 
410.000000	0.475400 
405.000000	0.474000 
400.000000	0.471400 
395.000000	0.478500 
390.000000	0.472800 
385.000000	0.471500 
380.000000	0.482800 
375.000000	0.478900 
370.000000	0.515700 
365.000000	0.468200 
360.000000	0.469900 
355.000000	0.487200 
350.000000	0.495300 
345.000000	0.531100 
340.000000	0.505800 
335.000000	0.572300 
330.000000	0.556400 
325.000000	0.554800 
320.000000	0.585800 

